ecg
0.041000236
-0.039242044
0.014230622
-0.046183262
0.0077764993
-0.032959852
0.10752644
-0.016315414
0.018030923
0.009398678
0.09664896
-0.009144317
0.06906891
0.0741775
0.08880364
0.11369284
0.09790487
0.070617236
0.08481731
0.0054179085
0.04280852
0.09520807
0.08864402
0.013017803
0.016087841
0.10727055
0.09026367
-0.06671871
0.022969801
0.03647554
0.03671269
0.13765717
0.038909793
0.11468393
-0.041783106
0.011224896
0.024246588
0.028235506
0.03916081
0.14244248
0.0482189
0.13123259
0.111330494
0.038281072
0.14182211
0.028525325
0.15420853
0.017239207
0.03444017
-0.018857528
0.12754388
0.06293033
0.08325032
0.12750705
0.18236424
0.15141474
0.26233202
0.20042668
0.2486812
0.19788684
0.35979107
0.13376756
0.20518304
0.12652278
0.12925239
0.14666809
0.05752781
0.15661685
0.08129615
-0.0099028135
0.07687609
0.063582316
-0.022927254
-0.25861135
-0.038026992
0.50578105
1.1505545
1.2431295
0.76140624
0.1775544
-0.25016746
-0.33014435
-0.20195058
-0.06799284
0.085016966
0.08846125
0.07239997
0.15246783
0.17019695
0.11549237
0.25737464
0.1907026
0.29087397
0.3874938
0.35615894
0.35532838
0.33111328
0.36481184
0.40716076
0.3934149
0.34859976
0.4008153
0.39747417
0.22212268
0.37226915
0.26501945
0.24826421
0.2586268
0.19733106
0.12263057
0.11333794
0.026537184
0.16043904
0.08900501
0.13256998
0.10025095
0.041116253
0.18065493
0.0725628
0.1705375
0.07218277
0.106815375
0.0949677
0.045836024
0.020627825
0.09788239
0.10453393
0.09016493
0.038086277
0.15490022
0.047070242
0.15576158
0.14659323
0.2260759
0.19811568
0.15922621
0.1816778
0.15636663
0.16513778
0.122453645
0.09583
0.071359694
0.035720773
0.011239223
0.04453452
0.007719144
-0.08125413
-0.082840756
-0.27212897
-0.12878765
0.35320848
0.96642584
1.3177623
0.7374677
0.12529944
-0.33666444
-0.36297885
-0.28018057
0.0053000255
-0.03953978
-0.066939734
-0.003133002
0.05160481
0.060061146
0.048409455
0.09219259
0.08868902
0.13445652
0.14051497
0.28266725
0.27636737
0.2743074
0.3195245
0.31751525
0.3528213
0.3093198
0.33478418
0.25024563
0.20741163
0.17401597
0.15647228
0.013378305
0.14944607
0.06891269
0.12032603
0.0043671126
-0.009902165
0.021328252
0.015493996
-0.12508418
-0.017342217
-0.01942995
0.0027715599
0.029131716
-0.011216612
-0.021297574
0.07196245
-0.08589623
-0.00055501424
-0.07217297
-0.070291154
-0.006751407
-0.037346132
-0.02252505
-0.049779106
-0.071442544
0.0023393154
0.008212309
0.10270816
0.18097278
0.09629419
0.18576938
0.056678087
0.08146186
-0.008983502
0.044366185
-0.072592095
-0.18166757
0.0046361913
-0.08677637
0.012829969
-0.022439495
-0.14188783
-0.12576555
-0.32224372
-0.26047388
0.28621417
1.0494128
1.064909
0.6131825
0.019545477
-0.32119548
-0.41812325
-0.37861866
-0.19680071
0.040935233
0.08698888
-0.038622085
0.012455113
0.054842517
-0.036650114
-0.012583654
0.052806042
0.12235036
0.19290212
0.2232862
0.25074053
0.37082228
0.26792055
0.25121996
0.3323596
0.28286567
0.23196988
0.3193174
0.1796158
0.2902142
0.1398001
0.10036154
0.06375994
0.008908857
0.042884137
0.055111613
-0.07860022
-0.06927009
-0.06803148
-0.02266634
0.053992312
0.025837515
-0.07485479
0.053654395
-0.061389636
0.0384205
0.029745188
-0.063118584
0.023704013
-0.09891845
0.042109173
-0.0070803193
0.0044122334
0.055183217
0.0640119
0.07015207
0.18259844
0.19115108
0.14003861
0.12992835
0.16276121
0.088963404
0.012210315
0.040443122
0.12199219
0.038561027
0.07447324
-0.017014015
-0.012455091
0.06781056
-0.0019242462
0.07804794
-0.10544477
-0.25524712
-0.055273976
0.54841906
1.2488613
1.1629646
0.6278639
0.12519887
-0.39734352
-0.33365294
-0.27777112
-0.0027504314
-0.015800754
0.11044774
0.11029975
0.16342722
0.19563137
0.16551818
0.16509011
0.23832615
0.25799096
0.2820037
0.3395963
0.3773179
0.39685762
0.4974856
0.3911688
0.42245978
0.3618541
0.30073187
0.35677952
0.34140456
0.32291517
0.31006387
0.2939457
0.17105967
0.27964762
0.16362715
0.073408775
0.11858446
0.07694732
0.030001866
0.16359842
0.12175362
0.03390032
0.093343705
0.17137985
0.08082913
0.19708484
0.17442185
0.05215433
0.09708722
0.08406203
0.13602488
0.149151
0.07831676
0.09425922
0.15826836
0.08129957
0.10295176
0.17507258
0.22400716
0.10717316
0.24752301
0.20836577
0.297223
0.1408152
0.24355498
0.24410786
0.2583432
0.17565775
0.13625462
0.18861526
0.13036105
0.04329372
0.12103216
0.120265655
0.09877532
0.046021964
0.04437747
-0.15983854
-0.11954878
0.19726846
0.81264263
1.2781575
1.0870095
0.59440356
-0.014367382
-0.16990416
-0.25886267
-0.0022425952
0.10982143
0.13924363
0.10726568
0.17428452
0.19559364
0.21913534
0.19218852
0.26623827
0.3617905
0.29243377
0.3617202
0.35801548
0.42384905
0.36408052
0.3886728
0.51576173
0.40872985
0.4756502
0.39490718
0.39749777
0.21075954
0.33881292
0.17375426
0.29345483
0.24825071
0.14009804
0.100772545
0.08740037
0.16015396
0.10613408
0.14982408
0.05910295
0.035984695
0.08384576
0.08230465
0.03067631
0.15716359
0.18914923
0.11097619
0.066734
0.05313903
0.06548802
0.08598407
0.042318568
0.03403249
0.11348055
0.06630747
0.11200584
0.15932958
0.16775152
0.11199044
0.15112656
0.2188684
0.19536786
0.23465012
0.18492122
0.15983373
0.13733631
0.015419048
0.06026049
0.061078373
0.044002242
0.039411295
-0.052338645
0.051901385
0.036492903
-0.16503657
-0.24847542
0.0778656
0.8268337
1.1250839
1.0278797
0.46636733
-0.09032193
-0.40289024
-0.34917656
-0.14884757
-0.06519005
0.07117199
0.12831971
-0.017081305
0.029571969
0.054567493
0.1045217
0.049186822
0.108545825
0.15805079
0.22064294
0.22405128
0.34922272
0.33936903
0.32726386
0.36377788
0.32107502
0.2679098
0.331761
0.19304855
0.20158544
0.22773103
0.1407523
0.166395
0.16183938
-0.019162077
0.031289056
-0.009422074
0.01599847
0.07344719
0.039745446
-0.06888821
-0.02875708
0.0039143446
-0.022258451
0.007865906
-0.052551907
0.030297088
-0.05553641
-0.009219917
-0.0155450385
-0.008662726
0.034445748
-0.08516878
-0.070624
0.059600253
-0.051121168
-0.026571814
-0.00055233814
0.043427862
0.05326275
0.10883813
0.15154275
0.15618627
0.16921806
0.06988473
0.055140134
0.061858486
0.054926272
0.020021351
-0.06764418
0.009109541
-0.096686915
-0.06648589
-0.07106119
-0.06499718
-0.09618566
-0.14123933
-0.23638628
-0.17385417
0.3423784
0.88954204
1.177957
0.66882676
0.07748363
-0.35130107
-0.4128457
-0.26962498
-0.22110523
-0.047278885
0.025298895
0.023666315
-0.06986556
0.04133992
0.10531042
0.08418052
0.18173155
0.1758755
0.24357966
0.286414
0.1883396
0.2296171
0.32016778
0.30430865
0.29347888
0.28754693
0.2958823
0.19684292
0.31706366
0.2515515
0.21466988
0.04510747
0.12697335
0.08213906
0.035760682
0.04468819
-0.049232308
-0.031101795
-0.11368635
-0.054701433
0.040262874
-0.0048918445
0.007741913
-0.07563578
0.019577695
0.064575344
0.032454677
0.007220111
0.01670467
-0.004706622
0.11868701
-0.09829369
0.08273313
0.075893395
-0.013965235
0.044163767
0.067203894
0.1181759
0.090008035
0.2304894
0.139072
0.25656486
0.21705954
0.14098147
0.12413696
0.13619772
0.052882403
0.05954853
0.113291375
0.025840048
0.045326266
0.15718974
0.0235038
0.04900069
0.009532854
-0.15803175
-0.20686379
0.04281095
0.75138324
1.215991
1.0197412
0.45582938
-0.061743792
-0.31169158
-0.3156948
-0.14156961
0.028115705
-0.022420831
0.1340428
0.022595797
0.11262542
0.23390694
0.1664625
0.21006402
0.24985433
0.23005046
0.30604634
0.40544534
0.4467799
0.36475977
0.39634997
0.3065662
0.44816914
0.38500786
0.3840873
0.30568945
0.42257655
0.31708556
0.20027527
0.23586527
0.24180783
0.12219861
0.13318913
0.13843445
0.16084103
0.0841664
0.0943603
0.02722313
0.1017173
0.12505463
0.06079781
0.052031994
0.12660329
0.028604183
0.113817
0.13580482
0.031702086
0.08192811
0.110799044
0.12366221
-0.03620042
0.11817559
0.09829864
0.18773295
0.17015937
0.2058236
0.13964015
0.271257
0.29056773
0.24240632
0.078735635
0.19457076
0.105625756
0.23180307
0.23227596
0.101683944
0.1744169
0.08218119
0.13630539
0.13106216
0.11466442
0.013126442
-0.039615747
-0.15763897
0.011271863
0.65495473
1.246003
1.2247188
0.61400455
-0.0008045626
-0.30907318
-0.3069004
-0.1623011
0.06412947
0.11706324
0.18893108
0.039027844
0.14079273
0.079558454
0.11703878
0.17788152
0.24418224
0.18569182
0.29160893
0.3410157
0.33332068
0.47086912
0.27698955
0.38521495
0.4465847
0.3840411
0.3724633
0.33230737
0.27575582
0.22899592
0.20449477
0.25644472
0.07676532
0.10627614
0.16284758
0.03845555
0.08908769
-0.009164992
0.066280425
0.089064635
0.063614376
0.089966126
0.01533911
0.07383923
0.017442849
0.09601902
0.035009347
0.16680087
-0.000995085
0.04401523
0.104372405
0.155273
0.16321744
0.117458075
0.13025652
0.20947248
0.20799623
0.13491513
0.17700997
0.17097494
0.096741155
0.1572842
0.11840991
0.14081906
0.0015589839
-0.040525634
-0.026519196
-0.0012968084
0.105061784
0.07866118
-0.056600414
-0.25979513
-0.27066624
-0.07529887
0.61499226
1.0927662
1.0434752
0.51416713
-0.11018328
-0.348352
-0.46443403
-0.34169874
-0.15122353
-0.15210237
-0.07225895
-0.03482651
0.08110594
0.054949705
0.09068787
0.0666608
0.1413081
0.13067418
0.16386093
0.23510206
0.09340986
0.31253752
0.28344843
0.21440332
0.32207865
0.27448943
0.30386022
0.19237642
0.1685077
0.19451113
0.15317616
0.11255596
0.09171982
0.079933636
0.01856239
0.008396101
0.05284983
0.06421423
-0.08084498
-0.0158608
-0.03861423
-0.10243949
-0.10590443
-0.10320598
0.029471114
-0.09917386
-0.06518542
-0.040457558
-0.093827516
-0.06328006
-0.061683554
0.016949873
-0.080020644
-0.042341724
-0.061128385
-0.06478641
0.009430438
0.093249425
0.14122668
0.09596088
0.10075998
0.0511854
0.0029183235
0.03162402
-0.047838878
-0.08505248
-0.067464784
-0.11681658
-0.061045147
-0.1212542
-0.035391588
-0.050347626
-0.2669877
-0.24936241
-0.34735224
-0.24096099
0.35141507
0.97764146
1.0928305
0.6356012
-0.01951237
-0.38566896
-0.46190113
-0.3825888
-0.3582267
-0.043079384
-0.113940276
-0.049687862
-0.10885855
-0.017002046
0.049882784
0.06398189
0.06149563
0.05307876
0.070992306
0.16630116
0.20960054
0.2269378
0.17729431
0.2593885
0.1761515
0.22656824
0.23877344
0.16202308
0.10532455
0.19674617
0.08294189
0.10768358
0.14377367
0.09339585
0.1241456
0.057819802
-0.08569378
-0.045576066
-0.07937476
-0.0118873855
0.03340057
-0.025755132
-0.048945315
-0.10839249
-0.011625585
0.0026120588
-0.041842632
-0.08595194
0.051251203
-0.13180573
-0.046420284
-0.057650264
0.023356725
0.013361059
0.013080706
-0.11416513
-0.024715679
-0.012617173
-0.07855946
-0.05892433
0.066315055
-0.06730499
0.020139424
0.1454118
0.054726638
0.100149296
0.16508085
0.11059673
0.07898119
0.08324654
-0.0011866895
0.009789081
0.03655299
-0.028827464
0.02539558
0.07297583
-0.13758549
-1.7102746e-05
-0.03962093
-0.042122714
-0.23669273
-0.2209155
0.17067286
0.8164112
1.0938898
0.9129053
0.29009035
-0.18170819
-0.41144732
-0.39045247
-0.14102808
0.05206543
0.08981754
0.06700344
0.06459058
0.012006448
0.06985986
0.13824005
0.16860351
0.17237867
0.358446
0.2643724
0.20412746
0.37928623
0.34873855
0.30902547
0.3653062
0.3449061
0.35399014
0.33633187
0.3416405
0.37829068
0.2045365
0.2728493
0.13319024
0.118292645
0.11787489
0.164377
0.07612776
0.085425384
0.033508863
0.070686944
0.06042876
0.03878969
-0.016304608
0.094673954
0.034671526
-0.019181581
-0.045842048
0.13857333
0.0985398
0.10861069
0.0879802
0.08902609
0.10126913
0.16985996
0.094591394
0.14109814
0.19085702
0.21702577
0.23506235
0.16042161
0.027926745
0.11156104
0.058034044
0.04439008
0.08253687
0.022658112
-0.04459183
0.008158497
0.12257593
0.020735534
-0.25685808
-0.12915678
0.4484185
1.0482703
1.1476185
0.66183954
0.13311689
-0.2743717
-0.42160395
-0.23866574
0.022064826
-0.07135979
0.12335056
0.08981766
0.07584286
0.08706958
0.16247901
0.11822853
0.21290681
0.2516996
0.23272783
0.20910048
0.27295902
0.34672073
0.37442985
0.43835443
0.22594896
0.308308
0.29014325
0.24876727
0.24652155
0.29375294
0.20279293
0.2041166
0.19244689
0.19336814
0.082027666
0.16606022
-0.006841731
0.016925894
0.057536315
-0.074709475
-0.05238912
0.0551105
0.03603649
0.11977312
0.0077964766
0.0006848333
-0.060368493
0.024978094
-0.03311198
0.04259136
0.071645126
-0.058690507
0.06679349
0.08357495
0.11800456
0.1570862
0.20640215
0.09105156
0.12590902
0.07471941
0.071368575
-0.06558756
-0.042118754
0.0442144
0.019885514
0.0015173709
0.005420415
-0.029708924
-0.078553066
-0.075443655
-0.3575343
-0.23150982
0.13130459
0.80332583
1.1214263
0.86779314
0.15483502
-0.27585545
-0.48098227
-0.24290544
-0.19581051
-0.07080683
-0.0022659402
-0.009579575
-0.015696853
0.04973307
0.040931065
0.013316701
0.12675884
0.17243822
0.12985736
0.23366214
0.1880275
0.17023258
0.2167315
0.35622358
0.2617641
0.24358079
0.13262871
0.18018228
0.085167706
0.10792305
0.026821604
0.08113795
0.13954581
0.03672312
-0.027219601
-0.059642818
-0.04303888
-0.071971096
-0.10630383
-0.08792426
-0.04020273
-0.15348507
-0.06594684
-0.16907284
-0.103363
-0.107973315
-0.2100405
-0.17237438
-0.10211787
-0.16066483
-0.11312094
-0.1484805
-0.17003047
-0.113798484
-0.12384232
-0.20762527
0.021452777
-0.0014247241
-0.017390547
-0.01623653
0.027621193
0.0065636723
-0.016809937
-0.022908699
0.0074936394
-0.09425131
-0.14322369
-0.037779912
-0.046444565
-0.089058354
-0.107291676
-0.13816386
-0.16883016
-0.25737715
-0.25237134
-0.3881979
-0.31900245
0.38800788
0.9667404
0.96494997
0.49471998
-0.13774894
-0.48453882
-0.55900216
-0.29688928
-0.25721437
-0.17105158
-0.056349657
-0.05700664
-0.065471865
0.0076962234
0.0036730848
0.07792215
-0.094138406
0.07911267
0.044926412
0.2296412
0.21086383
0.18773441
0.21570688
0.1650771
0.2196192
0.32790142
0.2702136
0.17723139
0.1339722
0.09040368
0.017586213
0.03591328
0.034344606
-0.04385341
-0.022507317
-0.08409224
0.017749095
-0.05370121
-0.09098248
-0.028293395
-0.048059836
-0.056330524
-0.06401145
-0.01062141
-0.08665297
-0.10374889
-0.06297516
-0.032604214
-0.13006192
-0.026149921
-0.058648814
0.0045030066
-0.05909247
0.022688111
-0.06404004
0.035956196
0.11999663
0.10010118
0.13267389
0.10633908
0.002850267
0.04786713
0.026926309
-0.0019291545
-0.08608237
-0.0021939636
-0.071455315
-0.06785036
-0.1246294
-0.08863458
-0.16428652
-0.20998235
-0.33384937
-0.114975825
0.3994109
1.1095382
1.1265476
0.6266792
0.012786799
-0.3468497
-0.49306777
-0.24736746
-0.25244236
-0.05995359
-0.010924733
0.05137934
-0.0257532
0.06402876
0.05497177
0.1679753
0.07698778
0.24596356
0.28096727
0.27772138
0.34327173
0.2511791
0.30729493
0.34406763
0.38191766
0.32531396
0.3061172
0.26425627
0.31741735
0.24959525
0.22423139
0.22173996
0.12351716
0.12411188
0.14973788
0.03505711
0.03332576
0.0984473
0.07268344
0.006668076
0.06093102
0.048286237
-0.0014812105
0.098232776
0.07003675
0.04841219
0.067857996
-0.07574634
-0.00086868537
0.13591476
0.03563968
0.041724794
0.00059216813
0.10596039
0.112320706
0.11560767
0.10921886
0.2722862
0.1673097
0.21206534
0.15795992
0.12877172
0.0964484
0.13553624
0.09999121
-0.04508257
0.08059001
0.09428602
-0.03360796
0.00277897
0.0030401067
-0.09814974
-0.29901725
-0.072469674
0.36765835
1.0230459
1.2422054
0.74365073
0.08369086
-0.23753965
-0.43647036
-0.28508252
-0.06392713
0.031645034
0.053789444
0.055926725
0.13326295
0.06530594
0.18092482
0.16879289
0.25361487
0.16345656
0.24862283
0.2846683
0.34796435
0.35069215
0.50266474
0.39190227
0.3306168
0.32374197
0.33678687
0.23764965
0.23602532
0.21141721
0.20806737
0.21253827
0.20250091
0.06589296
0.0919977
0.0014746445
0.0012571584
0.030959135
-0.03425859
0.11911124
-0.0036409174
0.054531515
0.04265376
0.093050696
0.0018351687
-0.009619023
-0.019872498
-0.045005508
-0.0013695013
0.001017916
-0.07126658
-0.027468704
0.027622916
-0.030478297
-0.037796672
-0.07592076
-0.022071922
0.0028932819
-0.07104292
0.01620873
-0.010675197
0.13556191
0.10167308
0.124616295
0.068464585
0.19889405
0.11214878
-0.03829913
0.086161114
-0.067541614
-0.008128147
-0.023251925
0.02064483
-0.019660857
-0.038150024
-0.034399107
-0.04443532
-0.10212104
-0.34020653
-0.1918628
0.16167212
0.8337402
1.2754314
0.8391197
0.19056015
-0.2773587
-0.42640337
-0.44841617
-0.31033903
-0.14769167
-0.09188761
0.040602792
0.0078049037
-0.037948485
-0.06623066
-0.0040322905
0.13992046
0.061666943
0.009522649
0.05897869
0.17854914
0.16600975
0.1955392
0.1833472
0.26185155
0.3528455
0.26065215
0.21625881
0.14524522
0.13344179
0.085339315
0.13393663
-0.009560522
0.017827578
0.016098421
-0.08427426
-0.09967265
0.01819996
-0.03244932
-0.09858238
-0.06069749
-0.09059014
0.019903041
-0.14146227
-0.13511918
-0.096667014
-0.16941938
-0.11734096
-0.075563654
-0.13001296
-0.13852045
-0.11358344
-0.17288838
-0.13485768
-0.04879708
-0.025692623
-0.08188914
-0.057201736
-0.0007378394
-0.08646956
-0.01165365
0.031698756
0.025345983
0.029320039
0.032361966
-0.02024476
0.086278826
-0.20111664
-0.12790625
-0.10590631
-0.10963547
-0.16440207
-0.17442054
-0.111961536
-0.115319714
-0.19637898
-0.39294574
-0.2882452
0.27003247
0.922749
1.0207013
0.5189799
-0.08909523
-0.4807679
-0.48377633
-0.36488962
-0.19867408
-0.1256248
-0.031078668
-0.12134583
-0.19321723
-0.12910837
0.08489107
-0.027613332
0.037398167
-0.04866032
0.104115434
0.11661896
0.19630818
0.1477745
0.24124719
0.1757413
0.26474315
0.24590388
0.18510902
0.14050679
0.20128371
0.10141527
0.1076016
0.025047008
0.037391216
-0.048339292
-0.01698509
-0.005386299
-0.07908674
-0.035840802
0.01358856
-0.03560174
-0.17493933
0.015041646
-0.10673388
-0.11160376
0.008495908
-0.15015802
-0.011288907
-0.03267061
-0.04394993
-0.06355763
-0.08014512
-0.09795341
0.004911137
-0.081165954
-0.060193293
0.0062970356
-0.03671508
0.001994107
0.008614842
0.09425322
0.09190551
0.0767363
0.12183139
0.1508282
0.12733036
0.16333343
0.027497908
0.019829324
-0.078039914
-0.019232891
0.0046615805
-0.023233438
-0.053520948
-0.10683731
-0.19974265
-0.17250144
-0.3195834
0.2097858
0.8712705
1.2836622
0.8635618
0.26361963
-0.21839207
-0.43219867
-0.4155441
-0.16868238
0.030356703
0.039646946
0.0485015
0.022713821
0.14027877
0.09767158
-0.020589588
0.17701736
0.23763336
0.25734225
0.25523472
0.3588499
0.41260204
0.43311787
0.35130095
0.3193616
0.38519084
0.3289256
0.28175068
0.35490742
0.2369991
0.18189535
0.21613237
0.034868877
0.06678898
0.1651116
0.095230736
0.0409869
0.014840008
0.10374893
0.020729493
0.0985863
0.061209537
0.0055699125
0.09121317
0.015521949
0.11057833
0.041760962
0.01780602
0.061777536
0.048856433
0.121278666
0.15463705
0.10960519
0.04623381
0.08159124
0.056812007
0.11161868
0.22007959
0.22438265
0.25247294
0.26229048
0.14484286
0.18610618
0.16095383
0.092569076
0.111967504
0.083796196
-0.00063285406
0.11994608
0.13019219
0.02349398
-0.010932141
0.0607
-0.11233537
-0.19819573
-0.012878034
0.60233533
1.1333992
1.1387999
0.6306085
0.15301116
-0.2361285
-0.23935711
-0.23760615
0.13396786
0.1462688
0.094629005
0.065747224
0.07980258
0.1727267
0.10203826
0.11761092
0.18438189
0.26449078
0.2121298
0.2926009
0.312204
0.37581074
0.37233678
0.39926255
0.3333897
0.2634834
0.38859504
0.31256473
0.36857948
0.15807211
0.24961954
0.22718288
0.17853503
0.12693974
0.09622588
-0.0037066757
0.1356133
0.073214754
-0.054384813
0.011669796
0.100887746
-0.021622723
0.05160463
0.0029462352
0.0993803
0.04237465
0.07634623
-0.025402715
0.00077011326
0.049867842
0.048748754
0.09472355
0.04285991
0.005904984
0.03518802
0.08381661
0.06724726
0.15994422
0.09817077
0.14393944
0.14796409
0.1732674
0.10402612
0.057169788
-0.016193604
-0.06128291
0.13042192
-0.025035648
0.05904217
-0.02693414
0.033237953
-0.0914386
-0.047218103
-0.20921236
-0.27668667
0.12063208
0.74171215
1.1175423
0.81115746
0.19467224
-0.2663531
-0.43034896
-0.4509127
-0.06862756
-0.06359382
-0.06609579
0.0061051003
0.04325502
0.04754127
0.032248728
0.04923072
0.087279834
0.15905768
0.23011498
0.190631
0.21304892
0.28758082
0.32052076
0.3501904
0.3015011
0.30234635
0.30962405
0.24298498
0.15082309
0.21079765
0.09057514
0.05033806
0.0150976535
0.045497883
0.0043261885
0.025159024
-0.07371928
-0.010447478
-0.010917986
-0.06678042
-0.12624636
0.0011364671
-0.079958744
-0.021874938
-0.009165952
-0.1123845
-0.12232826
0.044337124
-0.072406486
-0.067126
-0.052505914
-0.08781406
-0.08529503
-0.03260078
0.03263583
-0.08923043
0.033445187
0.09498414
0.049286008
0.04736841
0.11186606
0.033912733
-0.016828032
0.03020805
-0.038416408
-0.10479906
-0.032310255
-0.08753769
-0.113263756
-0.017498078
0.01823221
-0.119587526
-0.13348983
-0.1735574
-0.4206943
-0.14999229
0.35170317
0.98365074
1.1083183
0.5540716
-0.058755755
-0.36301643
-0.50616324
-0.3041592
-0.2705104
-0.1675348
-0.0027390872
-0.029101674
-0.058349393
-0.027672684
0.0024203814
0.098747924
0.049942784
0.104709044
0.12824175
0.19173297
0.22179015
0.2707803
0.26665995
0.23706628
0.27526093
0.2849935
0.2413106
0.26233292
0.34502798
0.10823112
0.11929483
0.08287862
0.104595594
0.14200108
0.013126599
0.002620439
-0.047241986
-0.048959848
0.02397092
0.0132530695
-0.035866458
-0.008437138
-0.050439004
-0.06875907
-0.07330928
0.027683014
-0.063986465
0.06904073
-0.013551502
-0.010603416
-0.00018992389
-0.04007452
-0.0120167835
0.015465319
0.015459169
0.02351132
0.024469208
0.06859363
0.09951263
0.1405256
0.1359749
0.14359452
0.2555242
0.18123797
0.102582544
0.12028448
0.089411505
0.10639394
0.09194624
0.048042152
0.038540617
0.13380471
0.03945958
-0.00071281666
0.023153229
-0.018851396
-0.11140989
-0.110654905
0.364504
0.988484
1.2249981
0.83299154
0.12974946
-0.23410454
-0.3128562
-0.36848536
-0.06179323
0.06533467
0.09327076
0.15247041
0.07295771
0.11576027
0.06297708
0.12979358
0.23912181
0.2796981
0.2449567
0.30970892
0.4161655
0.38397795
0.41064513
0.4107731
0.50775445
0.36451215
0.39398497
0.28558764
0.34663227
0.23290701
0.23650663
0.31343254
0.2875413
0.1121421
0.13022935
0.22836375
0.010732309
0.18485604
0.14512774
0.13369228
0.1689278
0.1612129
0.01189044
0.1885546
0.06567969
0.11102238
0.09677588
0.20618957
0.13507406
0.09956044
0.022472663
0.06504911
0.081100285
0.048566263
0.16789804
0.15196443
0.1334043
0.07069267
0.11925919
0.15786372
0.12214701
0.3114774
0.16408186
0.2217881
0.2922589
0.22385502
0.26600465
0.29331806
0.06267785
0.1912165
0.121377416
0.06088627
0.06168446
0.052985378
0.07317586
0.07349716
0.043160684
-0.033544295
-0.15555696
0.11943946
0.6713538
1.2150106
1.1911377
0.59396917
0.0649465
-0.22906141
-0.2582473
-0.10746888
-0.0494198
-0.00042638945
0.06837717
0.18249741
0.17972222
0.10148892
0.20959684
0.3341115
0.24309477
0.27752775
0.34151265
0.36155936
0.38504767
0.42102554
0.40459603
0.41632834
0.43955186
0.35229817
0.43202567
0.3621534
0.34601536
0.24141288
0.2657838
0.24366839
0.31569266
0.039865736
0.10374009
0.035803344
0.13361116
0.06158923
0.06956289
0.048018973
0.08246892
0.12338633
0.02137503
-0.00239685
0.04884808
0.15251376
0.03914518
0.076450616
0.062259704
0.12357937
-0.024190336
0.053989157
0.10372013
0.19742346
0.15179494
0.21354087
0.16995211
0.21831653
0.13800742
0.17718747
0.094341196
0.13584863
0.13139279
0.11131785
0.043630876
-0.04277237
-0.04177383
0.09458408
0.012585814
-0.03692745
-0.113785386
-0.19902337
-0.11586109
0.50830096
1.0549194
1.1444684
0.58607775
-0.061100803
-0.37571317
-0.45133406
-0.32379952
-0.116109125
-0.007922158
0.014074234
-0.021881588
0.023663446
0.06451405
-0.024788707
